 Al pb rel nc  
 atom 5.69p09-APR-07   Improved Troullier - Martins potential
 3s(  2.00)r rc= 2.263p(  1.00)r rc= 2.263d(  0.00)r rc= 2.26          
   3  2 1335  0.190673244359E-03  0.100000000000E-01   3.00000000000     nl nls nr a b zion 
 Radial grid follows
  0.191629796429E-05  0.385185504330E-05  0.580686479436E-05  0.778152272006E-05
  0.977602628786E-05  0.117905749498E-04  0.138253701623E-04  0.158806154067E-04
  0.179565162093E-04  0.200532801617E-04  0.221711169422E-04  0.243102383362E-04
  0.264708582576E-04  0.286531927703E-04  0.308574601094E-04  0.330838807036E-04
  0.353326771967E-04  0.376040744704E-04  0.398982996661E-04  0.422155822084E-04
  0.445561538275E-04  0.469202485823E-04  0.493081028845E-04  0.517199555214E-04
  0.541560476803E-04  0.566166229723E-04  0.591019274572E-04  0.616122096675E-04
  0.641477206333E-04  0.667087139081E-04  0.692954455931E-04  0.719081743638E-04
  0.745471614951E-04  0.772126708881E-04  0.799049690958E-04  0.826243253504E-04
  0.853710115897E-04  0.881453024846E-04  0.909474754665E-04  0.937778107551E-04
  0.966365913863E-04  0.995241032404E-04  0.102440635071E-03  0.105386478534E-03
  0.108361928216E-03  0.111367281665E-03  0.114402839417E-03  0.117468905033E-03
  0.120565785120E-03  0.123693789369E-03  0.126853230584E-03  0.130044424711E-03
  0.133267690872E-03  0.136523351396E-03  0.139811731853E-03  0.143133161083E-03
  0.146487971231E-03  0.149876497782E-03  0.153299079591E-03  0.156756058919E-03
  0.160247781467E-03  0.163774596410E-03  0.167336856432E-03  0.170934917763E-03
  0.174569140211E-03  0.178239887202E-03  0.181947525814E-03  0.185692426813E-03
  0.189474964693E-03  0.193295517711E-03  0.197154467925E-03  0.201052201233E-03
  0.204989107413E-03  0.208965580157E-03  0.212982017117E-03  0.217038819939E-03
  0.221136394307E-03  0.225275149983E-03  0.229455500844E-03  0.233677864930E-03
  0.237942664481E-03  0.242250325980E-03  0.246601280196E-03  0.250995962230E-03
  0.255434811552E-03  0.259918272051E-03  0.264446792078E-03  0.269020824488E-03
  0.273640826687E-03  0.278307260681E-03  0.283020593116E-03  0.287781295329E-03
  0.292589843395E-03  0.297446718173E-03  0.302352405353E-03  0.307307395509E-03
  0.312312184145E-03  0.317367271742E-03  0.322473163815E-03  0.327630370955E-03
  0.332839408890E-03  0.338100798525E-03  0.343415066006E-03  0.348782742763E-03
  0.354204365568E-03  0.359680476588E-03  0.365211623439E-03  0.370798359240E-03
  0.376441242669E-03  0.382140838020E-03  0.387897715256E-03  0.393712450070E-03
  0.399585623941E-03  0.405517824190E-03  0.411509644043E-03  0.417561682687E-03
  0.423674545330E-03  0.429848843264E-03  0.436085193924E-03  0.442384220950E-03
  0.448746554251E-03  0.455172830063E-03  0.461663691022E-03  0.468219786218E-03
  0.474841771266E-03  0.481530308370E-03  0.488286066389E-03  0.495109720906E-03
  0.502001954290E-03  0.508963455771E-03  0.515994921506E-03  0.523097054646E-03
  0.530270565411E-03  0.537516171157E-03  0.544834596452E-03  0.552226573144E-03
  0.559692840437E-03  0.567234144963E-03  0.574851240860E-03  0.582544889844E-03
  0.590315861285E-03  0.598164932288E-03  0.606092887765E-03  0.614100520520E-03
  0.622188631322E-03  0.630358028989E-03  0.638609530467E-03  0.646943960914E-03
  0.655362153780E-03  0.663864950890E-03  0.672453202533E-03  0.681127767539E-03
  0.689889513372E-03  0.698739316216E-03  0.707678061056E-03  0.716706641776E-03
  0.725825961240E-03  0.735036931389E-03  0.744340473327E-03  0.753737517416E-03
  0.763229003367E-03  0.772815880339E-03  0.782499107026E-03  0.792279651759E-03
  0.802158492601E-03  0.812136617444E-03  0.822215024109E-03  0.832394720444E-03
  0.842676724429E-03  0.853062064272E-03  0.863551778515E-03  0.874146916139E-03
  0.884848536667E-03  0.895657710269E-03  0.906575517872E-03  0.917603051265E-03
  0.928741413212E-03  0.939991717557E-03  0.951355089340E-03  0.962832664909E-03
  0.974425592029E-03  0.986135030005E-03  0.997962149788E-03  0.100990813410E-02
  0.102197417755E-02  0.103416148676E-02  0.104647128046E-02  0.105890478964E-02
  0.107146325766E-02  0.108414794039E-02  0.109696010630E-02  0.110990103662E-02
  0.112297202545E-02  0.113617437990E-02  0.114950942022E-02  0.116297847992E-02
  0.117658290592E-02  0.119032405868E-02  0.120420331232E-02  0.121822205477E-02
  0.123238168793E-02  0.124668362777E-02  0.126112930450E-02  0.127572016269E-02
  0.129045766144E-02  0.130534327452E-02  0.132037849049E-02  0.133556481290E-02
  0.135090376039E-02  0.136639686686E-02  0.138204568164E-02  0.139785176962E-02
  0.141381671143E-02  0.142994210357E-02  0.144622955859E-02  0.146268070526E-02
  0.147929718871E-02  0.149608067058E-02  0.151303282926E-02  0.153015535996E-02
  0.154744997496E-02  0.156491840373E-02  0.158256239312E-02  0.160038370756E-02
  0.161838412918E-02  0.163656545805E-02  0.165492951231E-02  0.167347812839E-02
  0.169221316115E-02  0.171113648413E-02  0.173024998966E-02  0.174955558912E-02
  0.176905521308E-02  0.178875081151E-02  0.180864435401E-02  0.182873782992E-02
  0.184903324863E-02  0.186953263969E-02  0.189023805305E-02  0.191115155928E-02
  0.193227524974E-02  0.195361123681E-02  0.197516165413E-02  0.199692865673E-02
  0.201891442135E-02  0.204112114658E-02  0.206355105311E-02  0.208620638394E-02
  0.210908940464E-02  0.213220240351E-02  0.215554769189E-02  0.217912760431E-02
  0.220294449880E-02  0.222700075705E-02  0.225129878472E-02  0.227584101163E-02
  0.230062989202E-02  0.232566790480E-02  0.235095755379E-02  0.237650136797E-02
  0.240230190176E-02  0.242836173523E-02  0.245468347437E-02  0.248126975139E-02
  0.250812322494E-02  0.253524658038E-02  0.256264253008E-02  0.259031381364E-02
  0.261826319824E-02  0.264649347881E-02  0.267500747843E-02  0.270380804850E-02
  0.273289806912E-02  0.276228044930E-02  0.279195812731E-02  0.282193407095E-02
  0.285221127783E-02  0.288279277569E-02  0.291368162272E-02  0.294488090782E-02
  0.297639375095E-02  0.300822330342E-02  0.304037274821E-02  0.307284530030E-02
  0.310564420695E-02  0.313877274810E-02  0.317223423662E-02  0.320603201869E-02
  0.324016947412E-02  0.327465001668E-02  0.330947709446E-02  0.334465419018E-02
  0.338018482160E-02  0.341607254179E-02  0.345232093957E-02  0.348893363981E-02
  0.352591430380E-02  0.356326662964E-02  0.360099435260E-02  0.363910124548E-02
  0.367759111899E-02  0.371646782217E-02  0.375573524271E-02  0.379539730739E-02
  0.383545798244E-02  0.387592127398E-02  0.391679122835E-02  0.395807193259E-02
  0.399976751481E-02  0.404188214460E-02  0.408442003345E-02  0.412738543519E-02
  0.417078264640E-02  0.421461600683E-02  0.425888989986E-02  0.430360875291E-02
  0.434877703791E-02  0.439439927171E-02  0.444048001659E-02  0.448702388066E-02
  0.453403551833E-02  0.458151963082E-02  0.462948096658E-02  0.467792432177E-02
  0.472685454077E-02  0.477627651665E-02  0.482619519165E-02  0.487661555767E-02
  0.492754265680E-02  0.497898158178E-02  0.503093747655E-02  0.508341553674E-02
  0.513642101021E-02  0.518995919754E-02  0.524403545260E-02  0.529865518306E-02
  0.535382385093E-02  0.540954697314E-02  0.546583012203E-02  0.552267892597E-02
  0.558009906990E-02  0.563809629586E-02  0.569667640363E-02  0.575584525128E-02
  0.581560875573E-02  0.587597289339E-02  0.593694370071E-02  0.599852727484E-02
  0.606072977417E-02  0.612355741902E-02  0.618701649219E-02  0.625111333966E-02
  0.631585437115E-02  0.638124606082E-02  0.644729494790E-02  0.651400763733E-02
  0.658139080044E-02  0.664945117559E-02  0.671819556889E-02  0.678763085483E-02
  0.685776397699E-02  0.692860194874E-02  0.700015185395E-02  0.707242084766E-02
  0.714541615684E-02  0.721914508106E-02  0.729361499330E-02  0.736883334059E-02
  0.744480764484E-02  0.752154550355E-02  0.759905459056E-02  0.767734265684E-02
  0.775641753126E-02  0.783628712139E-02  0.791695941425E-02  0.799844247712E-02
  0.808074445839E-02  0.816387358833E-02  0.824783817991E-02  0.833264662967E-02
  0.841830741851E-02  0.850482911260E-02  0.859222036417E-02  0.868048991242E-02
  0.876964658437E-02  0.885969929578E-02  0.895065705198E-02  0.904252894883E-02
  0.913532417359E-02  0.922905200587E-02  0.932372181852E-02  0.941934307861E-02
  0.951592534834E-02  0.961347828601E-02  0.971201164701E-02  0.981153528475E-02
  0.991205915168E-02  0.100135933003E-01  0.101161478840E-01  0.102197331585E-01
  0.103243594822E-01  0.104300373180E-01  0.105367772337E-01  0.106445899034E-01
  0.107534861084E-01  0.108634767385E-01  0.109745727928E-01  0.110867853811E-01
  0.112001257245E-01  0.113146051574E-01  0.114302351277E-01  0.115470271985E-01
  0.116649930491E-01  0.117841444763E-01  0.119044933952E-01  0.120260518408E-01
  0.121488319691E-01  0.122728460582E-01  0.123981065097E-01  0.125246258496E-01
  0.126524167300E-01  0.127814919301E-01  0.129118643576E-01  0.130435470497E-01
  0.131765531749E-01  0.133108960339E-01  0.134465890610E-01  0.135836458258E-01
  0.137220800339E-01  0.138619055289E-01  0.140031362936E-01  0.141457864510E-01
  0.142898702663E-01  0.144354021481E-01  0.145823966495E-01  0.147308684703E-01
  0.148808324577E-01  0.150323036082E-01  0.151852970691E-01  0.153398281398E-01
  0.154959122737E-01  0.156535650791E-01  0.158128023216E-01  0.159736399249E-01
  0.161360939731E-01  0.163001807116E-01  0.164659165492E-01  0.166333180597E-01
  0.168024019833E-01  0.169731852286E-01  0.171456848741E-01  0.173199181698E-01
  0.174959025392E-01  0.176736555810E-01  0.178531950705E-01  0.180345389620E-01
  0.182177053898E-01  0.184027126708E-01  0.185895793059E-01  0.187783239819E-01
  0.189689655735E-01  0.191615231449E-01  0.193560159520E-01  0.195524634444E-01
  0.197508852669E-01  0.199513012618E-01  0.201537314710E-01  0.203581961376E-01
  0.205647157083E-01  0.207733108352E-01  0.209840023779E-01  0.211968114059E-01
  0.214117592001E-01  0.216288672556E-01  0.218481572833E-01  0.220696512125E-01
  0.222933711926E-01  0.225193395959E-01  0.227475790195E-01  0.229781122873E-01
  0.232109624531E-01  0.234461528019E-01  0.236837068530E-01  0.239236483620E-01
  0.241660013233E-01  0.244107899723E-01  0.246580387881E-01  0.249077724959E-01
  0.251600160691E-01  0.254147947324E-01  0.256721339639E-01  0.259320594976E-01
  0.261945973263E-01  0.264597737041E-01  0.267276151488E-01  0.269981484448E-01
  0.272714006456E-01  0.275473990766E-01  0.278261713381E-01  0.281077453073E-01
  0.283921491420E-01  0.286794112827E-01  0.289695604559E-01  0.292626256768E-01
  0.295586362521E-01  0.298576217832E-01  0.301596121688E-01  0.304646376083E-01
  0.307727286044E-01  0.310839159665E-01  0.313982308135E-01  0.317157045773E-01
  0.320363690055E-01  0.323602561647E-01  0.326873984440E-01  0.330178285579E-01
  0.333515795496E-01  0.336886847946E-01  0.340291780036E-01  0.343730932262E-01
  0.347204648543E-01  0.350713276253E-01  0.354257166257E-01  0.357836672949E-01
  0.361452154280E-01  0.365103971803E-01  0.368792490703E-01  0.372518079833E-01
  0.376281111757E-01  0.380081962781E-01  0.383921012992E-01  0.387798646299E-01
  0.391715250469E-01  0.395671217165E-01  0.399666941988E-01  0.403702824513E-01
  0.407779268331E-01  0.411896681091E-01  0.416055474537E-01  0.420256064552E-01
  0.424498871198E-01  0.428784318761E-01  0.433112835787E-01  0.437484855132E-01
  0.441900814003E-01  0.446361153998E-01  0.450866321155E-01  0.455416765995E-01
  0.460012943566E-01  0.464655313489E-01  0.469344340006E-01  0.474080492023E-01
  0.478864243158E-01  0.483696071793E-01  0.488576461112E-01  0.493505899159E-01
  0.498484878882E-01  0.503513898183E-01  0.508593459969E-01  0.513724072199E-01
  0.518906247940E-01  0.524140505412E-01  0.529427368047E-01  0.534767364534E-01
  0.540161028878E-01  0.545608900451E-01  0.551111524043E-01  0.556669449921E-01
  0.562283233883E-01  0.567953437312E-01  0.573680627232E-01  0.579465376369E-01
  0.585308263200E-01  0.591209872021E-01  0.597170792996E-01  0.603191622223E-01
  0.609272961790E-01  0.615415419835E-01  0.621619610610E-01  0.627886154539E-01
  0.634215678282E-01  0.640608814796E-01  0.647066203400E-01  0.653588489838E-01
  0.660176326345E-01  0.666830371709E-01  0.673551291341E-01  0.680339757339E-01
  0.687196448554E-01  0.694122050661E-01  0.701117256227E-01  0.708182764777E-01
  0.715319282869E-01  0.722527524160E-01  0.729808209480E-01  0.737162066904E-01
  0.744589831824E-01  0.752092247023E-01  0.759670062748E-01  0.767324036787E-01
  0.775054934544E-01  0.782863529115E-01  0.790750601367E-01  0.798716940012E-01
  0.806763341692E-01  0.814890611053E-01  0.823099560829E-01  0.831391011922E-01
  0.839765793483E-01  0.848224742999E-01  0.856768706371E-01  0.865398538002E-01
  0.874115100883E-01  0.882919266677E-01  0.891811915809E-01  0.900793937550E-01
  0.909866230111E-01  0.919029700727E-01  0.928285265754E-01  0.937633850757E-01
  0.947076390600E-01  0.956613829547E-01  0.966247121348E-01  0.975977229342E-01
  0.985805126547E-01  0.995731795761E-01  0.100575822966      0.101588543089    
  0.102611441219      0.103644619646      0.104688181689      0.105742231705    
  0.106806875099      0.107882218337      0.108968368955      0.110065435568    
  0.111173527884      0.112292756712      0.113423233977      0.114565072728    
  0.115718387149      0.116883292572      0.118059905490      0.119248343564    
  0.120448725640      0.121661171755      0.122885803157      0.124122742309    
  0.125372112906      0.126634039886      0.127908649444      0.129196069040    
  0.130496427419      0.131809854616      0.133136481976      0.134476442163    
  0.135829869174      0.137196898352      0.138577666402      0.139972311401    
  0.141380972816      0.142803791513      0.144240909776      0.145692471318    
  0.147158621295      0.148639506325      0.150135274497      0.151646075389    
  0.153172060082      0.154713381176      0.156270192805      0.157842650651    
  0.159430911961      0.161035135563      0.162655481880      0.164292112948    
  0.165945192431      0.167614885640      0.169301359545      0.171004782794    
  0.172725325731      0.174463160412      0.176218460622      0.177991401893    
  0.179782161519      0.181590918579      0.183417853950      0.185263150326    
  0.187126992239      0.189009566075      0.190911060093      0.192831664443    
  0.194771571188      0.196730974319      0.198710069780      0.200709055480    
  0.202728131321      0.204767499212      0.206827363090      0.208907928945    
  0.211009404834      0.213132000907      0.215275929425      0.217441404783    
  0.219628643530      0.221837864392      0.224069288292      0.226323138376    
  0.228599640030      0.230899020905      0.233221510943      0.235567342394    
  0.237936749842      0.240329970231      0.242747242886      0.245188809534    
  0.247654914335      0.250145803901      0.252661727324      0.255202936197    
  0.257769684644      0.260362229342      0.262980829547      0.265625747122    
  0.268297246560      0.270995595015      0.273721062321      0.276473921030    
  0.279254446429      0.282062916573      0.284899612310      0.287764817314    
  0.290658818107      0.293581904092      0.296534367578      0.299516503817    
  0.302528611023      0.305570990409      0.308643946217      0.311747785744    
  0.314882819377      0.318049360621      0.321247726134      0.324478235755    
  0.327741212538      0.331036982782      0.334365876068      0.337728225288    
  0.341124366679      0.344554639859      0.348019387857      0.351518957151    
  0.355053697702      0.358623962985      0.362230110032      0.365872499459    
  0.369551495508      0.373267466082      0.377020782781      0.380811820940    
  0.384640959666      0.388508581876      0.392415074335      0.396360827697    
  0.400346236539      0.404371699405      0.408437618846      0.412544401457    
  0.416692457920      0.420882203042      0.425114055804      0.429388439392    
  0.433705781250      0.438066513115      0.442471071064      0.446919895556    
  0.451413431477      0.455952128186      0.460536439554      0.465166824018    
  0.469843744620      0.474567669054      0.479339069719      0.484158423758    
  0.489026213110      0.493942924558      0.498909049778      0.503925085386    
  0.508991532990      0.514108899239      0.519277695873      0.524498439778    
  0.529771653031      0.535097862959      0.540477602186      0.545911408691    
  0.551399825859      0.556943402537      0.562542693087      0.568198257443    
  0.573910661165      0.579680475499      0.585508277431      0.591394649746    
  0.597340181087      0.603345466011      0.609411105052      0.615537704778    
  0.621725877856      0.627976243107      0.634289425573      0.640666056578    
  0.647106773789      0.653612221285      0.660183049615      0.666819915868    
  0.673523483736      0.680294423580      0.687133412502      0.694041134404    
  0.701018280066      0.708065547208      0.715183640562      0.722373271944    
  0.729635160322      0.736970031891      0.744378620146      0.751861665950    
  0.759419917615      0.767054130972      0.774765069449      0.782553504146    
  0.790420213913      0.798365985427      0.806391613273      0.814497900020    
  0.822685656303      0.830955700904      0.839308860836      0.847745971420    
  0.856267876376      0.864875427900      0.873569486756      0.882350922355    
  0.891220612850      0.900179445216      0.909228315344      0.918368128129    
  0.927599797559      0.936924246810      0.946342408333      0.955855223954    
  0.965463644961      0.975168632204      0.984971156191      0.994872197182    
   1.00487274529       1.01497380058       1.02517637316       1.03548148329    
   1.04589016151       1.05640344868       1.06702239615       1.07774806581    
   1.08858153025       1.09952387281       1.11057618774       1.12173958028    
   1.13301516679       1.14440407482       1.15590744328       1.16752642252    
   1.17926217444       1.19111587263       1.20308870246       1.21518186124    
   1.22739655828       1.23973401507       1.25219546535       1.26478215530    
   1.27749534359       1.29033630154       1.30330631326       1.31640667577    
   1.32963869911       1.34300370649       1.35650303444       1.37013803288    
   1.38391006534       1.39782050902       1.41187075499       1.42606220827    
   1.44039628804       1.45487442770       1.46949807508       1.48426869256    
   1.49918775722       1.51425676097       1.52947721072       1.54485062854    
   1.56037855177       1.57606253323       1.59190414132       1.60790496022    
   1.62406659003       1.64039064691       1.65687876329       1.67353258800    
   1.69035378643       1.70734404071       1.72450504989       1.74183853008    
   1.75934621464       1.77702985435       1.79489121760       1.81293209053    
   1.83115427725       1.84955959999       1.86814989930       1.88692703423    
   1.90589288249       1.92504934070       1.94439832452       1.96394176886    
   1.98368162808       2.00361987618       2.02375850701       2.04409953444    
   2.06464499259       2.08539693604       2.10635743998       2.12752860049    
   2.14891253470       2.17051138102       2.19232729935       2.21436247131    
   2.23661910043       2.25909941239       2.28180565525       2.30474009963    
   2.32790503902       2.35130278991       2.37493569212       2.39880610893    
   2.42291642743       2.44726905865       2.47186643789       2.49671102490    
   2.52180530416       2.54715178512       2.57275300244       2.59861151628    
   2.62472991251       2.65111080298       2.67775682580       2.70467064561    
   2.73185495380       2.75931246884       2.78704593648       2.81505813012    
   2.84335185097       2.87192992845       2.90079522039       2.92995061332    
   2.95939902284       2.98914339378       3.01918670063       3.04953194772    
   3.08018216962       3.11114043138       3.14240982883       3.17399348896    
