 S  pb nrl nc  
 atom 5.69p01-FEB-19   Improved Troullier - Martins potential
 3s(  2.00)  rc= 1.693p(  4.00)  rc= 1.693d(  0.00)  rc= 1.69          
   3  0 1084  0.154922011042E-03  0.125000000000E-01   6.00000000000     nl nls nr a b zion 
 Radial grid follows
  0.194867900846E-05  0.392186938141E-05  0.591987943383E-05  0.794302135888E-05
  0.999161127660E-05  0.120659692833E-04  0.141664195017E-04  0.162932901314E-04
  0.184469135002E-04  0.206276261162E-04  0.228357687202E-04  0.250716863389E-04
  0.273357283390E-04  0.296282484817E-04  0.319496049779E-04  0.343001605443E-04
  0.366802824600E-04  0.390903426239E-04  0.415307176128E-04  0.440017887402E-04
  0.465039421160E-04  0.490375687069E-04  0.516030643970E-04  0.542008300503E-04
  0.568312715730E-04  0.594947999770E-04  0.621918314439E-04  0.649227873904E-04
  0.676880945339E-04  0.704881849593E-04  0.733234961865E-04  0.761944712385E-04
  0.791015587111E-04  0.820452128426E-04  0.850258935850E-04  0.880440666756E-04
  0.911002037102E-04  0.941947822164E-04  0.973282857283E-04  0.100501203862E-03
  0.103714032393E-03  0.106967273332E-03  0.110261435005E-03  0.113597032130E-03
  0.116974585903E-03  0.120394624071E-03  0.123857681024E-03  0.127364297872E-03
  0.130915022529E-03  0.134510409804E-03  0.138151021484E-03  0.141837426422E-03
  0.145570200625E-03  0.149349927348E-03  0.153177197180E-03  0.157052608140E-03
  0.160976765770E-03  0.164950283225E-03  0.168973781378E-03  0.173047888907E-03
  0.177173242400E-03  0.181350486453E-03  0.185580273767E-03  0.189863265256E-03
  0.194200130146E-03  0.198591546080E-03  0.203038199228E-03  0.207540784386E-03
  0.212100005094E-03  0.216716573738E-03  0.221391211667E-03  0.226124649303E-03
  0.230917626255E-03  0.235770891435E-03  0.240685203176E-03  0.245661329349E-03
  0.250700047484E-03  0.255802144891E-03  0.260968418783E-03  0.266199676401E-03
  0.271496735139E-03  0.276860422674E-03  0.282291577093E-03  0.287791047024E-03
  0.293359691771E-03  0.298998381447E-03  0.304707997107E-03  0.310489430891E-03
  0.316343586160E-03  0.322271377637E-03  0.328273731552E-03  0.334351585785E-03
  0.340505890013E-03  0.346737605858E-03  0.353047707039E-03  0.359437179522E-03
  0.365907021675E-03  0.372458244424E-03  0.379091871411E-03  0.385808939153E-03
  0.392610497207E-03  0.399497608329E-03  0.406471348644E-03  0.413532807814E-03
  0.420683089206E-03  0.427923310066E-03  0.435254601694E-03  0.442678109617E-03
  0.450194993776E-03  0.457806428697E-03  0.465513603684E-03  0.473317722998E-03
  0.481220006048E-03  0.489221687583E-03  0.497324017882E-03  0.505528262949E-03
  0.513835704716E-03  0.522247641236E-03  0.530765386892E-03  0.539390272598E-03
  0.548123646012E-03  0.556966871740E-03  0.565921331555E-03  0.574988424608E-03
  0.584169567652E-03  0.593466195259E-03  0.602879760045E-03  0.612411732900E-03
  0.622063603214E-03  0.631836879110E-03  0.641733087684E-03  0.651753775238E-03
  0.661900507525E-03  0.672174869992E-03  0.682578468030E-03  0.693112927221E-03
  0.703779893597E-03  0.714581033892E-03  0.725518035807E-03  0.736592608271E-03
  0.747806481708E-03  0.759161408308E-03  0.770659162302E-03  0.782301540238E-03
  0.794090361261E-03  0.806027467397E-03  0.818114723845E-03  0.830354019262E-03
  0.842747266063E-03  0.855296400719E-03  0.868003384057E-03  0.880870201568E-03
  0.893898863721E-03  0.907091406269E-03  0.920449890574E-03  0.933976403927E-03
  0.947673059872E-03  0.961541998540E-03  0.975585386982E-03  0.989805419504E-03
  0.100420431802E-02  0.101878433238E-02  0.103354774074E-02  0.104849684992E-02
  0.106363399575E-02  0.107896154343E-02  0.109448188792E-02  0.111019745432E-02
  0.112611069821E-02  0.114222410606E-02  0.115854019564E-02  0.117506151636E-02
  0.119179064971E-02  0.120873020965E-02  0.122588284302E-02  0.124325122997E-02
  0.126083808433E-02  0.127864615408E-02  0.129667822177E-02  0.131493710496E-02
  0.133342565662E-02  0.135214676563E-02  0.137110335721E-02  0.139029839335E-02
  0.140973487333E-02  0.142941583413E-02  0.144934435094E-02  0.146952353763E-02
  0.148995654724E-02  0.151064657248E-02  0.153159684620E-02  0.155281064191E-02
  0.157429127433E-02  0.159604209985E-02  0.161806651707E-02  0.164036796735E-02
  0.166294993534E-02  0.168581594953E-02  0.170896958276E-02  0.173241445285E-02
  0.175615422311E-02  0.178019260291E-02  0.180453334830E-02  0.182918026259E-02
  0.185413719689E-02  0.187940805078E-02  0.190499677288E-02  0.193090736148E-02
  0.195714386516E-02  0.198371038344E-02  0.201061106737E-02  0.203785012026E-02
  0.206543179825E-02  0.209336041105E-02  0.212164032254E-02  0.215027595154E-02
  0.217927177240E-02  0.220863231579E-02  0.223836216935E-02  0.226846597844E-02
  0.229894844683E-02  0.232981433747E-02  0.236106847322E-02  0.239271573761E-02
  0.242476107557E-02  0.245720949427E-02  0.249006606382E-02  0.252333591815E-02
  0.255702425572E-02  0.259113634042E-02  0.262567750232E-02  0.266065313856E-02
  0.269606871413E-02  0.273192976281E-02  0.276824188796E-02  0.280501076340E-02
  0.284224213437E-02  0.287994181833E-02  0.291811570594E-02  0.295676976195E-02
  0.299591002613E-02  0.303554261422E-02  0.307567371890E-02  0.311630961074E-02
  0.315745663917E-02  0.319912123350E-02  0.324130990392E-02  0.328402924248E-02
  0.332728592418E-02  0.337108670794E-02  0.341543843775E-02  0.346034804364E-02
  0.350582254282E-02  0.355186904080E-02  0.359849473242E-02  0.364570690303E-02
  0.369351292965E-02  0.374192028206E-02  0.379093652401E-02  0.384056931438E-02
  0.389082640840E-02  0.394171565883E-02  0.399324501724E-02  0.404542253519E-02
  0.409825636552E-02  0.415175476362E-02  0.420592608874E-02  0.426077880524E-02
  0.431632148397E-02  0.437256280360E-02  0.442951155194E-02  0.448717662735E-02
  0.454556704012E-02  0.460469191387E-02  0.466456048698E-02  0.472518211403E-02
  0.478656626728E-02  0.484872253813E-02  0.491166063862E-02  0.497539040295E-02
  0.503992178904E-02  0.510526488004E-02  0.517142988594E-02  0.523842714517E-02
  0.530626712617E-02  0.537496042909E-02  0.544451778739E-02  0.551495006955E-02
  0.558626828075E-02  0.565848356462E-02  0.573160720494E-02  0.580565062743E-02
  0.588062540152E-02  0.595654324217E-02  0.603341601170E-02  0.611125572163E-02
  0.619007453459E-02  0.626988476616E-02  0.635069888687E-02  0.643252952407E-02
  0.651538946399E-02  0.659929165364E-02  0.668424920291E-02  0.677027538660E-02
  0.685738364648E-02  0.694558759338E-02  0.703490100935E-02  0.712533784980E-02
  0.721691224566E-02  0.730963850563E-02  0.740353111836E-02  0.749860475477E-02
  0.759487427031E-02  0.769235470728E-02  0.779106129721E-02  0.789100946320E-02
  0.799221482234E-02  0.809469318820E-02  0.819846057321E-02  0.830353319125E-02
  0.840992746012E-02  0.851766000414E-02  0.862674765675E-02  0.873720746312E-02
  0.884905668280E-02  0.896231279247E-02  0.907699348863E-02  0.919311669037E-02
  0.931070054218E-02  0.942976341677E-02  0.955032391795E-02  0.967240088356E-02
  0.979601338836E-02  0.992118074707E-02  0.100479225173E-01  0.101762585028E-01
  0.103062087563E-01  0.104377935827E-01  0.105710335425E-01  0.107059494546E-01
  0.108425624000E-01  0.109808937248E-01  0.111209650434E-01  0.112627982423E-01
  0.114064154832E-01  0.115518392066E-01  0.116990921353E-01  0.118481972778E-01
  0.119991779321E-01  0.121520576892E-01  0.123068604370E-01  0.124636103636E-01
  0.126223319616E-01  0.127830500315E-01  0.129457896859E-01  0.131105763531E-01
  0.132774357815E-01  0.134463940430E-01  0.136174775379E-01  0.137907129982E-01
  0.139661274924E-01  0.141437484293E-01  0.143236035625E-01  0.145057209948E-01
  0.146901291824E-01  0.148768569395E-01  0.150659334426E-01  0.152573882353E-01
  0.154512512329E-01  0.156475527268E-01  0.158463233895E-01  0.160475942793E-01
  0.162513968453E-01  0.164577629320E-01  0.166667247845E-01  0.168783150536E-01
  0.170925668006E-01  0.173095135028E-01  0.175291890586E-01  0.177516277927E-01
  0.179768644617E-01  0.182049342592E-01  0.184358728216E-01  0.186697162335E-01
  0.189065010334E-01  0.191462642195E-01  0.193890432551E-01  0.196348760751E-01
  0.198838010914E-01  0.201358571989E-01  0.203910837819E-01  0.206495207201E-01
  0.209112083948E-01  0.211761876953E-01  0.214445000250E-01  0.217161873084E-01
  0.219912919971E-01  0.222698570768E-01  0.225519260739E-01  0.228375430622E-01
  0.231267526699E-01  0.234196000867E-01  0.237161310705E-01  0.240163919549E-01
  0.243204296563E-01  0.246282916811E-01  0.249400261336E-01  0.252556817227E-01
  0.255753077704E-01  0.258989542189E-01  0.262266716385E-01  0.265585112358E-01
  0.268945248613E-01  0.272347650180E-01  0.275792848690E-01  0.279281382463E-01
  0.282813796588E-01  0.286390643014E-01  0.290012480629E-01  0.293679875353E-01
  0.297393400223E-01  0.301153635487E-01  0.304961168687E-01  0.308816594759E-01
  0.312720516121E-01  0.316673542769E-01  0.320676292371E-01  0.324729390365E-01
  0.328833470056E-01  0.332989172714E-01  0.337197147677E-01  0.341458052448E-01
  0.345772552804E-01  0.350141322894E-01  0.354565045346E-01  0.359044411377E-01
  0.363580120897E-01  0.368172882619E-01  0.372823414172E-01  0.377532442210E-01
  0.382300702529E-01  0.387128940180E-01  0.392017909584E-01  0.396968374653E-01
  0.401981108907E-01  0.407056895596E-01  0.412196527821E-01  0.417400808662E-01
  0.422670551297E-01  0.428006579134E-01  0.433409725939E-01  0.438880835964E-01
  0.444420764081E-01  0.450030375916E-01  0.455710547981E-01  0.461462167816E-01
  0.467286134121E-01  0.473183356905E-01  0.479154757620E-01  0.485201269309E-01
  0.491323836753E-01  0.497523416614E-01  0.503800977590E-01  0.510157500563E-01
  0.516593978752E-01  0.523111417870E-01  0.529710836280E-01  0.536393265155E-01
  0.543159748638E-01  0.550011344005E-01  0.556949121832E-01  0.563974166162E-01
  0.571087574671E-01  0.578290458845E-01  0.585583944148E-01  0.592969170203E-01
  0.600447290965E-01  0.608019474907E-01  0.615686905198E-01  0.623450779890E-01
  0.631312312102E-01  0.639272730217E-01  0.647333278066E-01  0.655495215125E-01
  0.663759816713E-01  0.672128374192E-01  0.680602195166E-01  0.689182603687E-01
  0.697870940460E-01  0.706668563056E-01  0.715576846122E-01  0.724597181595E-01
  0.733730978920E-01  0.742979665272E-01  0.752344685778E-01  0.761827503740E-01
  0.771429600868E-01  0.781152477509E-01  0.790997652884E-01  0.800966665319E-01
  0.811061072495E-01  0.821282451682E-01  0.831632399992E-01  0.842112534625E-01
  0.852724493123E-01  0.863469933628E-01  0.874350535135E-01  0.885367997760E-01
  0.896524043006E-01  0.907820414026E-01  0.919258875901E-01  0.930841215915E-01
  0.942569243832E-01  0.954444792179E-01  0.966469716536E-01  0.978645895821E-01
  0.990975232587E-01  0.100345965332      0.101610110873      0.102890157408    
  0.104186304946      0.105498756013      0.106827715682      0.108173391606    
  0.109535994049      0.110915735921      0.112312832809      0.113727503013    
  0.115159967578      0.116610450328      0.118079177906      0.119566379802    
  0.121072288396      0.122597138987      0.124141169838      0.125704622206    
  0.127287740384      0.128890771737      0.130513966742      0.132157579027    
  0.133821865410      0.135507085938      0.137213503931      0.138941386020    
  0.140691002190      0.142462625822      0.144256533736      0.146073006234    
  0.147912327144      0.149774783862      0.151660667402      0.153570272436    
  0.155503897345      0.157461844261      0.159444419118      0.161451931696    
  0.163484695674      0.165543028675      0.167627252318      0.169737692268    
  0.171874678283      0.174038544274      0.176229628349      0.178448272868    
  0.180694824500      0.182969634272      0.185273057629      0.187605454486    
  0.189967189283      0.192358631046      0.194780153444      0.197232134845    
  0.199714958374      0.202229011979      0.204774688485      0.207352385660    
  0.209962506274      0.212605458163      0.215281654295      0.217991512830    
  0.220735457190      0.223513916120      0.226327323762      0.229176119715    
  0.232060749110      0.234981662676      0.237939316812      0.240934173658    
  0.243966701164      0.247037373171      0.250146669478      0.253295075917    
  0.256483084434      0.259711193161      0.262979906498      0.266289735187    
  0.269641196396      0.273034813797      0.276471117650      0.279950644885    
  0.283473939185      0.287041551071      0.290654037990      0.294311964401    
  0.298015901862      0.301766429121      0.305564132205      0.309409604514    
  0.313303446909      0.317246267813      0.321238683298      0.325281317188    
  0.329374801152      0.333519774806      0.337716885810      0.341966789972    
  0.346270151347      0.350627642345      0.355039943832      0.359507745239    
  0.364031744670      0.368612649009      0.373251174031      0.377948044515    
  0.382703994357      0.387519766683      0.392396113968      0.397333798152    
  0.402333590756      0.407396273010      0.412522635966      0.417713480631    
  0.422969618084      0.428291869608      0.433681066814      0.439138051776    
  0.444663677159      0.450258806353      0.455924313608      0.461661084172    
  0.467470014427      0.473352012029      0.479307996053      0.485338897133    
  0.491445657611      0.497629231679      0.503890585534      0.510230697524    
  0.516650558307      0.523151170997      0.529733551329      0.536398727813    
  0.543147741896      0.549981648126      0.556901514314      0.563908421704    
  0.571003465138      0.578187753233      0.585462408548      0.592828567761    
  0.600287381852      0.607840016274      0.615487651142      0.623231481415    
  0.631072717081      0.639012583351      0.647052320843      0.655193185784    
  0.663436450201      0.671783402119      0.680235345767      0.688793601779    
  0.697459507400      0.706234416694      0.715119700760      0.724116747940    
  0.733226964043      0.742451772558      0.751792614879      0.761250950533    
  0.770828257403      0.780526031964      0.790345789513      0.800289064405    
  0.810357410300      0.820552400395      0.830875627679      0.841328705177    
  0.851913266203      0.862630964618      0.873483475083      0.884472493325    
  0.895599736400      0.906866942963      0.918275873538      0.929828310794    
  0.941526059821      0.953370948418      0.965364827372      0.977509570751    
  0.989807076196       1.00225926522       1.01486808350       1.02763550118    
   1.04056351321       1.05365413962       1.06690942583       1.08033144302    
   1.09392228841       1.10768408558       1.12161898485       1.13572916358    
   1.15001682651       1.16448420611       1.17913356294       1.19396718600    
   1.20898739307       1.22419653109       1.23959697651       1.25519113569    
   1.27098144524       1.28697037244       1.30316041558       1.31955410440    
   1.33615400043       1.35296269746       1.36998282186       1.38721703308    
   1.40466802398       1.42233852133       1.44023128618       1.45834911430    
   1.47669483664       1.49527131976       1.51408146628       1.53312821531    
   1.55241454295       1.57194346273       1.59171802608       1.61174132281    
   1.63201648162       1.65254667052       1.67333509742       1.69438501053    
   1.71569969896       1.73728249316       1.75913676549       1.78126593072    
   1.80367344659       1.82636281432       1.84933757915       1.87260133095    
   1.89615770473       1.92001038121       1.94416308742       1.96861959729    
   1.99338373217       2.01845936153       2.04385040347       2.06956082541    
   2.09559464464       2.12195592900       2.14864879751       2.17567742096    
   2.20304602265       2.23075887897       2.25882032010       2.28723473072    
   2.31600655062       2.34514027546       2.37464045745       2.40451170605    
   2.43475868871       2.46538613156       2.49639882023       2.52780160049    
   2.55959937911       2.59179712454       2.62439986775       2.65741270299    
   2.69084078858       2.72468934772       2.75896366932       2.79366910882    
   2.82881108901       2.86439510088       2.90042670453       2.93691152996    
   2.97385527800       3.01126372118       3.04914270465       3.08749814708    
   3.12633604159       3.16566245667       3.20548353715       3.24580550517    
   3.28663466110       3.32797738460       3.36984013554       3.41222945506    
   3.45515196659       3.49861437684       3.54262347692       3.58718614333    
   3.63230933908       3.67800011476       3.72426560965       3.77111305282    
   3.81854976429       3.86658315614       3.91522073367       3.96447009662    
   4.01433894030       4.06483505680       4.11596633626       4.16774076805    
   4.22016644201       4.27325154977       4.32700438599       4.38143334966    
   4.43654694540       4.49235378484       4.54886258791       4.60608218421    
   4.66402151444       4.72268963172       4.78209570307       4.84224901082    
   4.90315895403       4.96483505001       5.02728693577       5.09052436955    
   5.15455723233       5.21939552937       5.28504939178       5.35152907813    
   5.41884497598       5.48700760360       5.55602761152       5.62591578427    
   5.69668304201       5.76834044228       5.84089918168       5.91437059767    
   5.98876617031       6.06409752405       6.14037642957       6.21761480561    
   6.29582472082       6.37501839566       6.45520820430       6.53640667656    
   6.61862649987       6.70188052124       6.78618174929       6.87154335625    
   6.95797868004       7.04550122637       7.13412467080       7.22386286094    
   7.31472981855       7.40673974178       7.49990700738       7.59424617291    
   7.68977197906       7.78649935194       7.88444340539       7.98361944337    
   8.08404296233       8.18572965367       8.28869540612       8.39295630830    
   8.49852865118       8.60542893067       8.71367385014       8.82328032308    
   8.93426547573       9.04664664975       9.16044140492       9.27566752190    
   9.39234300501       9.51048608503       9.63011522206       9.75124910839    
   9.87390667144       9.99810707670       10.1238697307       10.2512142842    
   10.3801606350       10.5107289312       10.6429395744       10.7768132228    
   10.9123707944       11.0496334703       11.1886226981       11.3293601952    
   11.4718679521       11.6161682359       11.7622835938       11.9102368567    
   12.0600511425       12.2117498600       12.3653567125       12.5208957014    
   12.6783911299       12.8378676070       12.9993500513       13.1628636947    
   13.3284340865       13.4960870974       13.6658489236       13.8377460908    
   14.0118054581       14.1880542227       14.3665199239       14.5472304472    
   14.7302140291       14.9154992612       15.1031150945       15.2930908445    
   15.4854561953       15.6802412043       15.8774763071       16.0771923221    
   16.2794204553       16.4841923053       16.6915398681       16.9014955421    
   17.1140921334       17.3293628607       17.5473413603       17.7680616920    
   17.9915583436       18.2178662371       18.4470207334       18.6790576384    
   18.9140132084       19.1519241557       19.3928276543       19.6367613458    
   19.8837633455       20.1338722479       20.3871271330       20.6435675723    
   20.9032336354       21.1661658954       21.4324054361       21.7019938579    
   21.9749732847       22.2513863699       22.5312763038       22.8146868196    
   23.1016622008       23.3922472880       23.6864874856       23.9844287693    
   24.2861176930       24.5916013962       24.9009276113       25.2141446713    
   25.5313015169       25.8524477044       26.1776334138       26.5069094558    
   26.8403272805       27.1779389853       27.5197973224       27.8659557081    
   28.2164682303       28.5713896573       28.9307754462       29.2946817519    
