 Na ca nrl nc  
 atom 5.69p26-Aug-06   Improved Troullier - Martins potential
 3s(  1.00)  rc= 2.983p(   .00)  rc= 2.983d(   .00)  rc= 3.07          
   3  0 1318   .225341106970E-03   .100000000000E-01   1.00000000000     nl nls nr a b zion 
 Radial grid follows
   .226471577598E-05   .455219232390E-05   .686265839333E-05   .919634503280E-05
   .115534856129E-04   .139343158497E-04   .163390738282E-04   .187680000261E-04
   .212213373382E-04   .236993311002E-04   .262022291135E-04   .287302816700E-04
   .312837415772E-04   .338628641830E-04   .364679074020E-04   .390991317406E-04
   .417568003234E-04   .444411789195E-04   .471525359690E-04   .498911426100E-04
   .526572727052E-04   .554512028700E-04   .582732124999E-04   .611235837980E-04
   .640026018039E-04   .669105544219E-04   .698477324495E-04   .728144296070E-04
   .758109425667E-04   .788375709823E-04   .818946175191E-04   .849823878845E-04
   .881011908579E-04   .912513383223E-04   .944331452951E-04   .976469299595E-04
   .100893013697E-03   .104171721118E-03   .107483380097E-03   .110828321802E-03
   .114206880729E-03   .117619394739E-03   .121066205084E-03   .124547656449E-03
   .128064096983E-03   .131615878331E-03   .135203355675E-03   .138826887766E-03
   .142486836960E-03   .146183569254E-03   .149917454326E-03   .153688865567E-03
   .157498180121E-03   .161345778923E-03   .165232046735E-03   .169157372188E-03
   .173122147818E-03   .177126770106E-03   .181171639517E-03   .185257160541E-03
   .189383741734E-03   .193551795757E-03   .197761739420E-03   .202013993720E-03
   .206308983886E-03   .210647139421E-03   .215028894144E-03   .219454686234E-03
   .223924958274E-03   .228440157295E-03   .233000734820E-03   .237607146912E-03
   .242259854215E-03   .246959322004E-03   .251706020229E-03   .256500423564E-03
   .261343011454E-03   .266234268161E-03   .271174682816E-03   .276164749463E-03
   .281204967114E-03   .286295839794E-03   .291437876596E-03   .296631591726E-03
   .301877504561E-03   .307176139697E-03   .312528027001E-03   .317933701667E-03
   .323393704267E-03   .328908580804E-03   .334478882773E-03   .340105167207E-03
   .345787996740E-03   .351527939658E-03   .357325569963E-03   .363181467420E-03
   .369096217626E-03   .375070412059E-03   .381104648144E-03   .387199529311E-03
   .393355665051E-03   .399573670985E-03   .405854168916E-03   .412197786902E-03
   .418605159308E-03   .425076926877E-03   .431613736792E-03   .438216242738E-03
   .444885104973E-03   .451620990387E-03   .458424572575E-03   .465296531901E-03
   .472237555566E-03   .479248337679E-03   .486329579324E-03   .493481988630E-03
   .500706280844E-03   .508003178403E-03   .515373411001E-03   .522817715669E-03
   .530336836842E-03   .537931526439E-03   .545602543935E-03   .553350656439E-03
   .561176638769E-03   .569081273528E-03   .577065351187E-03   .585129670161E-03
   .593275036888E-03   .601502265912E-03   .609812179962E-03   .618205610036E-03
   .626683395485E-03   .635246384095E-03   .643895432171E-03   .652631404625E-03
   .661455175062E-03   .670367625866E-03   .679369648289E-03   .688462142542E-03
   .697646017882E-03   .706922192703E-03   .716291594632E-03   .725755160615E-03
   .735313837017E-03   .744968579714E-03   .754720354189E-03   .764570135626E-03
   .774518909013E-03   .784567669234E-03   .794717421175E-03   .804969179818E-03
   .815323970349E-03   .825782828255E-03   .836346799430E-03   .847016940280E-03
   .857794317829E-03   .868680009823E-03   .879675104841E-03   .890780702400E-03
   .901997913071E-03   .913327858583E-03   .924771671940E-03   .936330497534E-03
   .948005491256E-03   .959797820616E-03   .971708664856E-03   .983739215071E-03
   .995890674325E-03   .100816425778E-02   .102056119279E-02   .103308271907E-02
   .104573008879E-02   .105850456668E-02   .107140743021E-02   .108443996968E-02
   .109760348834E-02   .111089930257E-02   .112432874195E-02   .113789314944E-02
   .115159388149E-02   .116543230819E-02   .117940981339E-02   .119352779485E-02
   .120778766438E-02   .122219084799E-02   .123673878599E-02   .125143293321E-02
   .126627475906E-02   .128126574774E-02   .129640739836E-02   .131170122509E-02
   .132714875735E-02   .134275153988E-02   .135851113298E-02   .137442911263E-02
   .139050707064E-02   .140674661480E-02   .142314936910E-02   .143971697382E-02
   .145645108574E-02   .147335337828E-02   .149042554168E-02   .150766928318E-02
   .152508632716E-02   .154267841534E-02   .156044730695E-02   .157839477888E-02
   .159652262591E-02   .161483266083E-02   .163332671466E-02   .165200663682E-02
   .167087429532E-02   .168993157694E-02   .170918038743E-02   .172862265167E-02
   .174826031393E-02   .176809533796E-02   .178812970731E-02   .180836542541E-02
   .182880451586E-02   .184944902258E-02   .187030101005E-02   .189136256348E-02
   .191263578903E-02   .193412281406E-02   .195582578728E-02   .197774687900E-02
   .199988828136E-02   .202225220852E-02   .204484089687E-02   .206765660532E-02
   .209070161546E-02   .211397823179E-02   .213748878201E-02   .216123561718E-02
   .218522111202E-02   .220944766509E-02   .223391769906E-02   .225863366097E-02
   .228359802242E-02   .230881327987E-02   .233428195488E-02   .236000659432E-02
   .238598977069E-02   .241223408232E-02   .243874215367E-02   .246551663557E-02
   .249256020548E-02   .251987556779E-02   .254746545405E-02   .257533262328E-02
   .260347986222E-02   .263190998561E-02   .266062583649E-02   .268963028647E-02
   .271892623602E-02   .274851661476E-02   .277840438175E-02   .280859252579E-02
   .283908406572E-02   .286988205072E-02   .290098956062E-02   .293240970619E-02
   .296414562947E-02   .299620050408E-02   .302857753554E-02   .306127996158E-02
   .309431105246E-02   .312767411132E-02   .316137247450E-02   .319540951186E-02
   .322978862714E-02   .326451325826E-02   .329958687773E-02   .333501299294E-02
   .337079514652E-02   .340693691673E-02   .344344191776E-02   .348031380015E-02
   .351755625113E-02   .355517299496E-02   .359316779334E-02   .363154444580E-02
   .367030679003E-02   .370945870230E-02   .374900409783E-02   .378894693118E-02
   .382929119669E-02   .387004092881E-02   .391120020254E-02   .395277313385E-02
   .399476388007E-02   .403717664030E-02   .408001565586E-02   .412328521068E-02
   .416698963176E-02   .421113328958E-02   .425572059853E-02   .430075601738E-02
   .434624404972E-02   .439218924438E-02   .443859619593E-02   .448546954510E-02
   .453281397925E-02   .458063423288E-02   .462893508805E-02   .467772137488E-02
   .472699797205E-02   .477676980725E-02   .482704185771E-02   .487781915068E-02
   .492910676393E-02   .498090982625E-02   .503323351802E-02   .508608307162E-02
   .513946377207E-02   .519338095748E-02   .524784001961E-02   .530284640441E-02
   .535840561258E-02   .541452320006E-02   .547120477868E-02   .552845601663E-02
   .558628263909E-02   .564469042877E-02   .570368522650E-02   .576327293179E-02
   .582345950349E-02   .588425096028E-02   .594565338137E-02   .600767290706E-02
   .607031573933E-02   .613358814254E-02   .619749644398E-02   .626204703452E-02
   .632724636928E-02   .639310096825E-02   .645961741694E-02   .652680236706E-02
   .659466253715E-02   .666320471329E-02   .673243574975E-02   .680236256969E-02
   .687299216586E-02   .694433160127E-02   .701638800993E-02   .708916859753E-02
   .716268064220E-02   .723693149520E-02   .731192858168E-02   .738767940141E-02
   .746419152954E-02   .754147261733E-02   .761953039297E-02   .769837266230E-02
   .777800730961E-02   .785844229843E-02   .793968567233E-02   .802174555570E-02
   .810463015462E-02   .818834775761E-02   .827290673649E-02   .835831554724E-02
   .844458273081E-02   .853171691398E-02   .861972681026E-02   .870862122070E-02
   .879840903482E-02   .888909923147E-02   .898070087975E-02   .907322313990E-02
   .916667526422E-02   .926106659801E-02   .935640658047E-02   .945270474569E-02
   .954997072356E-02   .964821424075E-02   .974744512171E-02   .984767328961E-02
   .994890876733E-02   .100511616785E-01   .101544422486E-01   .102587608056E-01
   .103641277815E-01   .104705537132E-01   .105780492432E-01   .106866251213E-01
   .107962922052E-01   .109070614615E-01   .110189439673E-01   .111319509111E-01
   .112460935935E-01   .113613834289E-01   .114778319465E-01   .115954507911E-01
   .117142517247E-01   .118342466276E-01   .119554474993E-01   .120778664600E-01
   .122015157517E-01   .123264077395E-01   .124525549126E-01   .125799698859E-01
   .127086654009E-01   .128386543274E-01   .129699496643E-01   .131025645412E-01
   .132365122199E-01   .133718060951E-01   .135084596963E-01   .136464866891E-01
   .137859008762E-01   .139267161992E-01   .140689467397E-01   .142126067209E-01
   .143577105090E-01   .145042726143E-01   .146523076933E-01   .148018305495E-01
   .149528561355E-01   .151053995538E-01   .152594760590E-01   .154151010588E-01
   .155722901158E-01   .157310589491E-01   .158914234357E-01   .160533996123E-01
   .162170036764E-01   .163822519887E-01   .165491610742E-01   .167177476239E-01
   .168880284966E-01   .170600207204E-01   .172337414949E-01   .174092081922E-01
   .175864383591E-01   .177654497188E-01   .179462601726E-01   .181288878016E-01
   .183133508689E-01   .184996678207E-01   .186878572891E-01   .188779380931E-01
   .190699292409E-01   .192638499318E-01   .194597195581E-01   .196575577069E-01
   .198573841621E-01   .200592189065E-01   .202630821239E-01   .204689942006E-01
   .206769757282E-01   .208870475048E-01   .210992305379E-01   .213135460460E-01
   .215300154606E-01   .217486604291E-01   .219695028161E-01   .221925647059E-01
   .224178684050E-01   .226454364439E-01   .228752915796E-01   .231074567979E-01
   .233419553154E-01   .235788105822E-01   .238180462839E-01   .240596863445E-01
   .243037549280E-01   .245502764416E-01   .247992755376E-01   .250507771160E-01
   .253048063274E-01   .255613885748E-01   .258205495167E-01   .260823150693E-01
   .263467114095E-01   .266137649770E-01   .268835024776E-01   .271559508850E-01
   .274311374445E-01   .277090896750E-01   .279898353717E-01   .282734026096E-01
   .285598197457E-01   .288491154218E-01   .291413185678E-01   .294364584042E-01
   .297345644453E-01   .300356665019E-01   .303397946846E-01   .306469794062E-01
   .309572513856E-01   .312706416503E-01   .315871815395E-01   .319069027075E-01
   .322298371266E-01   .325560170906E-01   .328854752177E-01   .332182444541E-01
   .335543580769E-01   .338938496977E-01   .342367532661E-01   .345831030726E-01
   .349329337525E-01   .352862802893E-01   .356431780177E-01   .360036626280E-01
   .363677701688E-01   .367355370513E-01   .371070000523E-01   .374821963186E-01
   .378611633701E-01   .382439391037E-01   .386305617975E-01   .390210701139E-01
   .394155031041E-01   .398139002118E-01   .402163012769E-01   .406227465401E-01
   .410332766460E-01   .414479326481E-01   .418667560122E-01   .422897886212E-01
   .427170727786E-01   .431486512131E-01   .435845670830E-01   .440248639803E-01
   .444695859349E-01   .449187774195E-01   .453724833536E-01   .458307491081E-01
   .462936205100E-01   .467611438468E-01   .472333658713E-01   .477103338060E-01
   .481920953482E-01   .486786986744E-01   .491701924453E-01   .496666258107E-01
   .501680484143E-01   .506745103990E-01   .511860624112E-01   .517027556066E-01
   .522246416549E-01   .527517727452E-01   .532842015911E-01   .538219814358E-01
   .543651660578E-01   .549138097760E-01   .554679674552E-01   .560276945118E-01
   .565930469187E-01   .571640812118E-01   .577408544950E-01   .583234244460E-01
   .589118493224E-01   .595061879671E-01   .601064998145E-01   .607128448963E-01
   .613252838474E-01   .619438779123E-01   .625686889510E-01   .631997794449E-01
   .638372125038E-01   .644810518714E-01   .651313619323E-01   .657882077179E-01
   .664516549134E-01   .671217698641E-01   .677986195820E-01   .684822717526E-01
   .691727947418E-01   .698702576024E-01   .705747300813E-01   .712862826264E-01
   .720049863933E-01   .727309132533E-01   .734641357994E-01   .742047273547E-01
   .749527619788E-01   .757083144759E-01   .764714604018E-01   .772422760718E-01
   .780208385680E-01   .788072257475E-01   .796015162494E-01   .804037895037E-01
   .812141257382E-01   .820326059872E-01   .828593120995E-01   .836943267464E-01
   .845377334299E-01   .853896164916E-01   .862500611204E-01   .871191533614E-01
   .879969801247E-01   .888836291936E-01   .897791892339E-01   .906837498021E-01
   .915974013552E-01   .925202352591E-01   .934523437979E-01   .943938201832E-01
   .953447585636E-01   .963052540335E-01   .972754026434E-01   .982553014089E-01
   .992450483208E-01   .100244742354       .101254483480       .102274372673    
   .103304511923       .104345004244       .105395953687       .106457465347    
   .107529645377       .108612600995       .109706440498       .110811273271    
   .111927209798       .113054361674       .114192841614       .115342763468    
   .116504242228       .117677394044       .118862336232       .120059187287    
   .121268066895       .122489095945       .123722396541       .124968092014    
   .126226306935       .127497167126       .128780799674       .130077332944    
   .131386896590       .132709621569       .134045640155       .135395085951    
   .136758093903       .138134800313       .139525342852       .140929860576    
   .142348493938       .143781384802       .145228676458       .146690513638    
   .148167042525       .149658410775       .151164767524       .152686263411    
   .154223050586       .155775282728       .157343115063       .158926704374    
   .160526209023       .162141788961       .163773605747       .165421822565    
   .167086604237       .168768117243       .170466529735       .172182011557    
   .173914734258       .175664871111       .177432597133       .179218089096    
   .181021525551       .182843086845       .184682955134       .186541314406    
   .188418350500       .190314251120       .192229205858       .194163406211    
   .196117045601       .198090319393       .200083424916       .202096561483    
   .204129930409       .206183735032       .208258180735       .210353474964    
   .212469827250       .214607449230       .216766554668       .218947359476    
   .221150081738       .223374941725       .225622161928       .227891967069    
   .230184584131       .232500242378       .234839173376       .237201611022    
   .239587791562       .241997953614       .244432338198       .246891188753    
   .249374751167       .251883273799       .254417007502       .256976205652    
   .259561124171       .262172021554       .264809158891       .267472799899    
   .270163210944       .272880661070       .275625422024       .278397768283    
   .281197977086       .284026328455       .286883105228       .289768593085    
   .292683080577       .295626859156       .298600223201       .301603470051    
   .304636900034       .307700816495       .310795525828       .313921337508    
   .317078564117       .320267521381       .323488528198       .326741906672    
   .330027982143       .333347083222       .336699541821       .340085693189    
   .343505875945       .346960432108       .350449707138       .353974049965    
   .357533813027       .361129352302       .364761027347       .368429201333    
   .372134241081       .375876517098       .379656403613       .383474278620    
   .387330523908       .391225525106       .395159671717       .399133357158    
   .403146978802       .407200938015       .411295640194       .415431494815    
   .419608915466       .423828319892       .428090130038       .432394772087    
   .436742676509       .441134278096       .445570016014       .450050333838    
   .454575679605       .459146505853       .463763269669       .468426432733    
   .473136461364       .477893826570       .482699004091       .487552474450    
   .492454722996       .497406239959       .502407520495       .507459064736    
   .512561377841       .517714970045       .522920356712       .528178058384    
   .533488600837       .538852515129       .544270337655       .549742610203    
   .555269880005       .560852699792       .566491627850       .572187228077    
   .577940070039       .583750729023       .589619786101       .595547828183    
   .601535448079       .607583244555       .613691822396       .619861792465    
   .626093771764       .632388383496       .638746257128       .645168028453    
   .651654339652       .658205839362       .664823182739       .671507031523    
   .678258054104       .685076925590       .691964327873       .698920949700    
   .705947486739       .713044641649       .720213124152       .727453651102    
   .734766946557       .742153741854       .749614775677       .757150794137    
   .764762550842       .772450806974       .780216331364       .788059900572    
   .795982298960       .803984318777       .812066760229       .820230431569    
   .828476149169       .836804737610       .845217029755       .853713866842    
   .862296098562       .870964583144       .879720187445       .888563787032    
   .897496266272       .906518518422       .915631445712       .924835959445    
   .934132980079       .943523437323       .953008270232       .962588427296    
   .972264866539       .982038555614       .991910471897       1.00188160259    
   1.01195294481       1.02212550570       1.03240030253       1.04277836278    
   1.05326072428       1.06384843525       1.07454255450       1.08534415142    
   1.09625430621       1.10727410987       1.11840466439       1.12964708285    
   1.14100248950       1.15247201988       1.16405682095       1.17575805122    
   1.18757688080       1.19951449159       1.21157207737       1.22375084389    
   1.23605200906       1.24847680299       1.26102646818       1.27370225960    
   1.28650544484       1.29943730423       1.31249913097       1.32569223125    
   1.33901792439       1.35247754297       1.36607243297       1.37980395389    
   1.39367347888       1.40768239492       1.42183210291       1.43612401783    
   1.45055956887       1.46514019962       1.47986736815       1.49474254717    
   1.50976722424       1.52494290181       1.54027109749       1.55575334409    
   1.57139118985       1.58718619858       1.60313994979       1.61925403886    
   1.63553007722       1.65196969248       1.66857452862       1.68534624614    
   1.70228652223       1.71939705092       1.73667954328       1.75413572758    
   1.77176734944       1.78957617205       1.80756397631       1.82573256100    
   1.84408374301       1.86261935746       1.88134125793       1.90025131663    
   1.91935142458       1.93864349180       1.95812944753       1.97781124037    
   1.99769083851       2.01777022993       2.03805142260       2.05853644464    
   2.07922734457       2.10012619150       2.12123507534       2.14255610699    
   2.16409141857       2.18584316363       2.20781351736       2.23000467681    
   2.25241886113       2.27505831174       2.29792529262       2.32102209047    
   2.34435101500       2.36791439912       2.39171459919       2.41575399525    
   2.44003499125       2.46456001532       2.48933151998       2.51435198239    
   2.53962390464       2.56514981393       2.59093226287       2.61697382973    
   2.64327711869       2.66984476010       2.69667941074       2.72378375411    
   2.75116050066       2.77881238808       2.80674218159       2.83495267419    
   2.86344668696       2.89222706932       2.92129669933       2.95065848397    
   2.98031535946       3.01027029150       3.04052627562       3.07108633742    
   3.10195353296       3.13313094897       3.16462170322       3.19642894481    
   3.22855585450       3.26100564499       3.29378156130       3.32688688105    
   3.36032491479       3.39409900635       3.42821253318       3.46266890666    
   3.49747157244       3.53262401083       3.56812973710       3.60399230185    
   3.64021529137       3.67680232799       3.71375707044       3.75108321422    
